# Template No. 1: sn99ee (Ia-norm; +7) ; z= 0.528 +/- 0.005
#redshifted_wavelength[A] flux[arbitraty]
  4337.41211  0.240357816
  4343.28857  0.241637394
  4349.17188  0.242922321
  4355.06396  0.244213149
  4360.96387  0.245510578
  4366.87158  0.246815041
  4372.7876  0.248126656
  4378.71143  0.249444962
  4384.64355  0.250769258
  4390.5835  0.252098978
  4396.53125  0.253434062
  4402.48779  0.254775047
  4408.45166  0.256123006
  4414.42383  0.257479072
  4420.4043  0.258844346
  4426.39258  0.260219395
  4432.38916  0.261604011
  4438.39404  0.262997627
  4444.40674  0.264399439
  4450.42725  0.265808642
  4456.45654  0.267225295
  4462.49365  0.268649936
  4468.53955  0.270083904
  4474.59277  0.271528631
  4480.65479  0.272985518
  4486.72461  0.274455488
  4492.80273  0.275938749
  4498.88965  0.277434766
  4504.98438  0.278942853
  4511.08691  0.280462235
  4517.19824  0.281992555
  4523.31787  0.283534288
  4529.4458  0.285088271
  4535.58203  0.286655933
  4541.72607  0.288238645
  4547.87939  0.289837509
  4554.04004  0.291453123
  4560.20947  0.293085456
  4566.3877  0.29473424
  4572.57373  0.296399027
  4578.76807  0.298079669
  4584.97119  0.299776375
  4591.18262  0.30148986
  4597.40234  0.303221136
  4603.63037  0.304971308
  4609.86719  0.306741327
  4616.1123  0.308532029
  4622.36572  0.310343683
  4628.62793  0.312176526
  4634.89844  0.314030528
  4641.17725  0.315905869
  4647.46484  0.317802817
  4653.76074  0.319722027
  4660.06543  0.321664244
  4666.37793  0.323630512
  4672.7002  0.325621665
  4679.03027  0.327638447
  4685.36914  0.329681188
  4691.71631  0.331750035
  4698.07227  0.333845019
  4704.43701  0.335965991
  4710.81006  0.338112742
  4717.19189  0.340285122
  4723.58252  0.342483163
  4729.98145  0.344707102
  4736.38965  0.346957535
  4742.80566  0.349235505
  4749.23096  0.351541996
  4755.66504  0.353878081
  4762.10742  0.356244415
  4768.55859  0.358641058
  4775.01904  0.361067265
  4781.48779  0.363521844
  4787.96533  0.366003364
  4794.45166  0.368510962
  4800.94629  0.371044666
  4807.45068  0.373605937
  4813.96338  0.376197338
  4820.48486  0.378821969
  4827.01562  0.381482601
  4833.55469  0.384180635
  4840.10303  0.386915445
  4846.65967  0.38968426
  4853.22559  0.392483145
  4859.80029  0.395307958
  4866.38379  0.398156345
  4872.97656  0.401028812
  4879.57764  0.403929025
  4886.18848  0.406863332
  4892.80811  0.409838706
  4899.43652  0.412860721
  4906.07373  0.415931165
  4912.72021  0.419047207
  4919.37549  0.422201574
  4926.04004  0.425385147
  4932.71338  0.428589582
  4939.39551  0.431810826
  4946.08691  0.435051322
  4952.78809  0.438320011
  4959.49707  0.441629827
  4966.21631  0.444994211
  4972.94385  0.448422015
  4979.68115  0.451914132
  4986.42676  0.455462158
  4993.18213  0.459050685
  4999.94678  0.462661743
  5006.72021  0.466281384
  5013.50293  0.469905078
  5020.29443  0.473540694
  5027.0957  0.477207392
  5033.90576  0.480929792
  5040.72559  0.484730303
  5047.5542  0.488620758
  5054.39258  0.492596895
  5061.23975  0.496638417
  5068.09619  0.500714242
  5074.9624  0.50479275
  5081.8374  0.508853555
  5088.72168  0.51289624
  5095.61523  0.516943336
  5102.51855  0.521035612
  5109.43115  0.525219142
  5116.35303  0.52952981
  5123.28418  0.533977926
  5130.22461  0.538541198
  5137.1748  0.543166876
  5144.13428  0.547786713
  5151.10352  0.552338541
  5158.08105  0.556790233
  5165.06934  0.561156809
  5172.06641  0.565504134
  5179.07324  0.569935679
  5186.08936  0.574565113
  5193.11523  0.57948041
  5200.1499  0.584712148
  5207.19482  0.590216517
  5214.24951  0.595883369
  5221.31299  0.601570368
  5228.38672  0.607158482
  5235.46924  0.612616539
  5242.56201  0.618057609
  5249.66455  0.623768449
  5256.77637  0.630200803
  5263.89746  0.637920499
  5271.02881  0.647521615
  5278.16943  0.659523129
  5285.32031  0.674272835
  5292.47998  0.691880584
  5299.6499  0.712203026
  5306.82959  0.734882355
  5314.01855  0.759436011
  5321.21777  0.785374999
  5328.42627  0.812324226
  5335.64502  0.840111434
  5342.87305  0.868802786
  5350.11133  0.898669124
  5357.35938  0.93008852
  5364.61719  0.963402748
  5371.88477  0.998760641
  5379.16162  1.0359875
  5386.44922  1.07451344
  5393.74658  1.11338902
  5401.05322  1.15139246
  5408.37061  1.18721771
  5415.69727  1.21971262
  5423.03369  1.24811924
  5430.38086  1.27226734
  5437.73682  1.29267037
  5445.104  1.31049263
  5452.47998  1.32737398
  5459.86719  1.3451252
  5467.26318  1.36533964
  5474.67041  1.38897777
  5482.08643  1.4160074
  5489.51367  1.44516981
  5496.9502  1.47393489
  5504.39697  1.49867737
  5511.854  1.5150671
  5519.3208  1.51862824
  5526.79834  1.50538647
  5534.28516  1.47249687
  5541.78271  1.41874492
  5549.29004  1.34482622
  5556.80811  1.25334918
  5564.33594  1.14855123
  5571.87402  1.03577542
  5579.42236  0.920796394
  5586.98096  0.809115589
  5594.5498  0.705345273
  5602.12891  0.612785637
  5609.71826  0.533252418
  5617.31787  0.467160642
  5624.92773  0.413817495
  5632.54785  0.371841282
  5640.17871  0.33960247
  5647.81934  0.31559059
  5655.47021  0.298642486
  5663.13232  0.288009524
  5670.8042  0.283281922
  5678.48633  0.284227639
  5686.1792  0.290613949
  5693.88232  0.30207786
  5701.59619  0.318083525
  5709.31982  0.337974578
  5717.0542  0.36109218
  5724.79932  0.386912167
  5732.55518  0.415144503
  5740.3208  0.445758283
  5748.09717  0.478915811
  5755.88477  0.514837623
  5763.68213  0.553640664
  5771.49023  0.595206439
  5779.30908  0.639128447
  5787.13867  0.684763908
  5794.97852  0.731382668
  5802.8291  0.778373957
  5810.69043  0.825450063
  5818.56201  0.872781277
  5826.44482  0.921014965
  5834.33789  0.971158266
  5842.2417  1.02434635
  5850.15625  1.08154655
  5858.08154  1.14327157
  5866.01758  1.20937061
  5873.96436  1.27895272
  5881.92236  1.35045385
  5889.89014  1.42183256
  5897.86963  1.49084055
  5905.85938  1.55530417
  5913.86035  1.61335194
  5921.87207  1.66355062
  5929.89453  1.70493615
  5937.92773  1.73696446
  5945.97217  1.7594223
  5954.02734  1.7723434
  5962.09326  1.77597713
  5970.17041  1.77081227
  5978.25781  1.7576474
  5986.35693  1.73766255
  5994.46631  1.71244705
  6002.58789  1.68393409
  6010.71924  1.65422726
  6018.8623  1.62532926
  6027.01611  1.59882474
  6035.18066  1.57558882
  6043.35693  1.55560148
  6051.54395  1.5379343
  6059.74219  1.52093995
  6067.95166  1.50262511
  6076.17188  1.48114812
  6084.40332  1.45533812
  6092.646  1.4251225
  6100.8999  1.39175999
  6109.16504  1.35780776
  6117.44141  1.32680988
  6125.72852  1.3027494
  6134.02686  1.289361
  6142.33691  1.28943384
  6150.6582  1.30424464
  6158.99072  1.33323431
  6167.33447  1.37399948
  6175.68896  1.42260849
  6184.05566  1.47418094
  6192.43311  1.52362633
  6200.82227  1.56639934
  6209.22266  1.59913194
  6217.63428  1.62003112
  6226.05762  1.62898076
  6234.4917  1.6273489
  6242.93799  1.6175648
  6251.39551  1.60256827
  6259.86426  1.58525896
  6268.34473  1.5680567
  6276.83643  1.55264807
  6285.34033  1.53994536
  6293.85498  1.53022563
  6302.38135  1.52337825
  6310.91943  1.51916599
  6319.46875  1.517416
  6328.02979  1.51808572
  6336.60254  1.52119374
  6345.18701  1.52665389
  6353.7832  1.53408289
  6362.39062  1.54266298
  6371.00977  1.55112481
  6379.64062  1.55787683
  6388.2832  1.56126404
  6396.9375  1.55989158
  6405.60352  1.55292165
  6414.28125  1.54025853
  6422.97119  1.52255833
  6431.67236  1.50105262
  6440.38525  1.47722244
  6449.11035  1.45241237
  6457.84717  1.42749059
  6466.5957  1.40264857
  6475.35596  1.37740338
  6484.12842  1.35080302
  6492.9126  1.3217833
  6501.7085  1.28957534
  6510.5166  1.2540524
  6519.33643  1.21591663
  6528.16846  1.17667317
  6537.01221  1.13839722
  6545.86816  1.10335326
  6554.73584  1.07357347
  6563.61572  1.05049944
  6572.50732  1.03477883
  6581.41162  1.02625871
  6590.32715  1.02415848
  6599.25586  1.02736175
  6608.19531  1.03473091
  6617.14795  1.0453521
  6626.1123  1.0586499
  6635.08887  1.07435
  6644.07764  1.09232521
  6653.07812  1.11239541
  6662.09131  1.1341635
  6671.1167  1.15695941
  6680.1543  1.17992461
  6689.2041  1.20222354
  6698.26611  1.22332108
  6707.34033  1.24324143
  6716.42676  1.26272166
  6725.52588  1.28319931
  6734.63672  1.30661869
  6743.76025  1.33508801
  6752.89648  1.37046623
  6762.04492  1.41397405
  6771.20508  1.46592128
  6780.37842  1.52561116
  6789.56396  1.59144044
  6798.76172  1.66116452
  6807.97217  1.73225772
  6817.19531  1.80228567
  6826.43066  1.86920679
  6835.67871  1.93154883
  6844.93896  1.98843896
  6854.21191  2.03950477
  6863.49707  2.08469439
  6872.79541  2.12407374
  6882.10596  2.15766048
  6891.42969  2.18533182
  6900.76562  2.20682335
  6910.11426  2.22181201
  6919.47559  2.23004937
  6928.84912  2.23150945
  6938.23584  2.22650909
  6947.63525  2.21576977
  6957.04736  2.20039701
  6966.47217  2.18177748
  6975.91016  2.16139722
  6985.36035  2.14061069
  6994.82373  2.12038994
  7004.2998  2.1011014
  7013.78857  2.08235192
  7023.29004  2.06295252
  7032.80469  2.0410254
  7042.33252  2.01426673
  7051.87256  1.98034394
  7061.42627  1.93737257
  7070.99219  1.88439786
  7080.57129  1.82177603
  7090.16357  1.75136542
  7099.76904  1.67645621
  7109.38721  1.60140991
  7119.01855  1.53104651
  7128.6626  1.46986842
  7138.31982  1.42126012
  7147.99023  1.3868252
  7157.67383  1.36600351
  7167.37061  1.35607398
  7177.08008  1.35257137
  7186.80322  1.35005987
  7196.53955  1.34313333
  7206.28857  1.32745385
  7216.05127  1.30062568
  7225.82666  1.26272857
  7235.61572  1.2163924
  7245.41797  1.16638613
  7255.2334  1.11878991
  7265.0625  1.07989776
  7274.9043  1.05505729
  7284.75977  1.04766059
  7294.62891  1.0584749
  7304.51074  1.08543622
  7314.40625  1.12394202
  7324.31543  1.16758502
  7334.23779  1.2091912
  7344.17383  1.24197578
  7354.12256  1.260607
  7364.08545  1.26199889
  7374.06201  1.24570072
  7384.05176  1.21383405
  7394.05469  1.17060614
  7404.07178  1.12150812
  7414.10254  1.07235444
  7424.14648  1.02834284
  7434.2041  0.993302941
  7444.27539  0.969252169
  7454.35986  0.95631671
  7464.45898  0.952997863
  7474.57129  0.956701756
  7484.69678  0.964399099
  7494.83691  0.973270476
  7504.99023  0.981202304
  7515.15723  0.987049282
  7525.33838  0.990629852
  7535.53271  0.992494464
  7545.7417  0.993550122
  7555.96387  0.994656026
  7566.2002  0.996302009
  7576.4502  0.998451471
  7586.71387  1.00058067
  7596.9917  1.00188899
  7607.28369  1.00161171
  7617.58936  0.999334514
  7627.90918  0.995217443
  7638.24268  0.990058959
  7648.59033  0.985182524
  7658.95215  0.9821738
  7669.32812  0.982545674
  7679.71729  0.987422049
  7690.12158  0.997328579
  7700.54004  1.01214361
  7710.97217  1.03121614
  7721.41797  1.05360591
  7731.87842  1.07836831
  7742.35254  1.10478973
  7752.8418  1.13250041
  7763.34424  1.16142678
  7773.86182  1.19160259
  7784.39355  1.22290373
  7794.93848  1.25480115
  7805.49902  1.28622854
  7816.07324  1.31563437
  7826.66113  1.3412286
  7837.26416  1.36137676
  7847.88135  1.37504077
  7858.51318  1.38213801
  7869.15918  1.38369811
  7879.81982  1.38174009
  7890.49512  1.37886763
  7901.18408  1.37765074
  7911.88867  1.37993598
  7922.60645  1.38625586
  7933.33936  1.39549649
  7944.0874  1.40494049
  7954.84912  1.41071105
  7965.62549  1.4085393
  7976.4165  1.39470255
  7987.22266  1.36692643
  7998.04297  1.32503891
  8008.87842  1.27121663
  8019.72754  1.20974648
  8030.59229  1.14633894
  8041.47168  1.08713055
  8052.36523  1.03758323
  8063.27441  1.00152016
  8074.19775  0.980498493
  8085.13574  0.973652124
  8096.08887  0.978024781
  8107.05762  0.989308059
  8118.03955  1.00280857
  8129.03711  1.01442182
  8140.05029  1.02139807
  8151.07812  1.02274024
  8162.12012  1.01916301
  8173.17725  1.01265061
  8184.24951  1.00573897
  8195.33691  1.00071287
  8206.43945  0.998917401
  8217.55762  1.00035059
  8228.68945  1.00363255
  8239.83691  1.00634825
  8251.  1.00567722
  8262.17773  0.999150515
  8273.37012  0.985350192
  8284.57812  0.964383185
  8295.80176  0.938016474
  8307.04102  0.909439921
  8318.29395  0.882711768
  8329.5625  0.862009168
  8340.84766  0.85084933
  8352.14648  0.851446569
  8363.46191  0.864335239
  8374.79199  0.888324261
  8386.1377  0.920775592
  8397.49805  0.958128095
  8408.875  0.996544242
  8420.26562  1.03253937
  8431.67285  1.06347108
  8443.0957  1.08780932
  8454.5332  1.10516357
  8465.9873  1.11609828
  8477.45605  1.12181163
  8488.94141  1.12377048
  8500.44141  1.12338626
  8511.95703  1.1217947
  8523.48828  1.11976302
  8535.03516  1.11771023
  8546.59668  1.11580217
  8558.17578  1.11406815
  8569.76953  1.11249566
  8581.37891  1.11107635
  8593.00488  1.10980046
  8604.64551  1.10861826
  8616.30273  1.10739648
  8627.97559  1.10590208
  8639.66309  1.10382509
  8651.36816  1.1008389
  8663.08789  1.09668267
  8674.82422  1.0912348
  8686.57715  1.08455563
  8698.34375  1.07687926
  8710.12793  1.06856346
  8721.92773  1.06001222
  8733.74316  1.05160475
  8745.57617  1.04365897
  8757.42285  1.03644407
  8769.28711  1.03023958
  8781.16699  1.02541792
  8793.0625  1.02250886
  8804.97559  1.02221
  8816.90332  1.0253166
  8828.84766  1.03256977
  8840.80859  1.04445326
  8852.78516  1.06098855
  8864.77832  1.08159423
  8876.78809  1.10505867
  8888.81348  1.12965763
  8900.85547  1.153404
  8912.91309  1.17438257
